# Matter power spectrum P(k) at redshift z=0
# for k=1.04922e-05 to 1.02756 h/Mpc,
# number of wavenumbers equal to 563
#    1:k (h/Mpc)              2:P (Mpc/h)^3        
       1.049220218728e-05       4.865631090375e+01 
       2.569470607389e-05       1.155859192227e+02 
       4.096478606165e-05       1.813779596997e+02 
       5.635969706683e-05       2.468443823506e+02 
       7.193792525595e-05       3.124597061681e+02 
       8.775991334542e-05       3.785957015923e+02 
       1.038888161444e-04       4.455840445963e+02 
       1.203912999807e-04       5.137420831399e+02 
       1.373383996949e-04       5.833866899799e+02 
       1.548064468519e-04       6.548433259678e+02 
       1.728780825079e-04       7.284530003919e+02 
       1.916433670272e-04       8.045783133554e+02 
       2.112009976621e-04       8.836090044362e+02 
       2.316596413728e-04       9.659675369232e+02 
       2.531393848940e-04       1.052114614633e+03 
       2.757732953703e-04       1.142554833212e+03 
       2.997090716510e-04       1.237842215986e+03 
       3.251107469423e-04       1.338585740331e+03 
       3.521603760855e-04       1.445454366236e+03 
       3.810596033543e-04       1.559181092765e+03 
       4.120309578759e-04       1.680565596683e+03 
       4.453186634415e-04       1.810474389427e+03 
       4.811886801801e-04       1.949837751554e+03 
       5.199276247297e-04       2.099641174755e+03 
       5.618401577551e-04       2.260911895642e+03 
       6.072444068149e-04       2.434695976059e+03 
       6.564650417671e-04       2.622028008984e+03 
       7.098237767929e-04       2.823890864923e+03 
       7.676273678010e-04       3.041167365042e+03 
       8.301536086226e-04       3.274586061855e+03 
       8.976363546236e-04       3.524666163464e+03 
       9.702511030327e-04       3.791667006932e+03 
       1.048102968698e-03       4.075549427867e+03 
       1.131218847531e-03       4.375957857143e+03 
       1.219545076615e-03       4.692222548952e+03 
       1.312951049174e-03       5.023388514361e+03 
       1.411238245003e-03       5.368245615563e+03 
       1.514153281835e-03       5.725411977237e+03 
       1.621403112372e-03       6.093436398736e+03 
       1.732670466286e-03       6.470796825374e+03 
       1.847627985803e-03       6.855981674810e+03 
       1.965950051606e-03       7.247536570586e+03 
       2.087321860404e-03       7.644094729282e+03 
       2.211445771335e-03       8.044398956337e+03 
       2.338045234181e-03       8.447312276338e+03 
       2.466866755646e-03       8.851819430400e+03 
       2.597680388197e-03       9.257025074743e+03 
       2.730279183687e-03       9.662146233843e+03 
       2.864477978168e-03       1.006650321038e+04 
       3.000111790552e-03       1.046951169892e+04 
       3.137034040593e-03       1.087066864304e+04 
       3.275114727373e-03       1.126954515844e+04 
       3.414238659638e-03       1.166578001367e+04 
       3.554303792638e-03       1.205906328236e+04 
       3.695219700288e-03       1.244913755218e+04 
       3.836906194126e-03       1.283578432132e+04 
       3.979292089324e-03       1.321882973434e+04 
       4.122314111268e-03       1.359811943038e+04 
       4.265915932463e-03       1.397354116528e+04 
       4.410047327803e-03       1.434498860922e+04 
       4.554663435754e-03       1.471239537451e+04 
       4.699724113356e-03       1.507569409145e+04 
       4.845193373684e-03       1.543478289642e+04 
       4.991038895416e-03       1.578975166577e+04 
       5.137231595214e-03       1.614051558089e+04 
       5.283745254676e-03       1.648697828574e+04 
       5.430556194629e-03       1.682936583022e+04 
       5.577642990458e-03       1.716750314638e+04 
       5.724986222988e-03       1.750140366922e+04 
       5.872568260178e-03       1.783031603617e+04 
       6.020373065518e-03       1.815580032965e+04 
       6.168386029615e-03       1.847707209509e+04 
       6.316593821903e-03       1.879446917295e+04 
       6.464984259857e-03       1.910783200376e+04 
       6.613546193453e-03       1.941664593397e+04 
       6.762269402914e-03       1.972137883404e+04 
       6.911144508058e-03       2.002214041832e+04 
       7.060162887801e-03       2.031888621569e+04 
       7.209316608541e-03       2.061160715812e+04 
       7.358598360358e-03       2.090028442778e+04 
       7.508001400049e-03       2.118488501420e+04 
       7.657519500218e-03       2.146640346929e+04 
       7.807146903672e-03       2.174337978219e+04 
       7.956878282529e-03       2.201648637554e+04 
       8.106708701473e-03       2.228576690508e+04 
       8.256633584707e-03       2.255131396839e+04 
       8.406648686166e-03       2.281305222093e+04 
       8.556750062641e-03       2.307105178360e+04 
       8.706934049494e-03       2.332535086047e+04 
       8.857197238682e-03       2.357596511448e+04 
       9.007536458839e-03       2.382290598009e+04 
       9.157948757210e-03       2.406616245953e+04 
       9.308431383232e-03       2.430587077744e+04 
       9.458981773598e-03       2.454194082835e+04 
       9.609597538662e-03       2.477449239942e+04 
       9.760276450029e-03       2.500358328372e+04 
       9.911016429237e-03       2.522906145481e+04 
       1.006181553741e-02       2.545116992663e+04 
       1.021267196578e-02       2.566968295312e+04 
       1.036358402705e-02       2.588483365580e+04 
       1.051455014739e-02       2.609656085658e+04 
       1.066556885920e-02       2.630496899473e+04 
       1.081663879436e-02       2.650987262781e+04 
       1.096775867813e-02       2.671151603151e+04 
       1.111892732341e-02       2.690981119744e+04 
       1.127014362558e-02       2.710482169777e+04 
       1.142140655767e-02       2.729654452881e+04 
       1.157271516593e-02       2.748498837173e+04 
       1.172406856571e-02       2.767022169798e+04 
       1.187546593772e-02       2.785222408246e+04 
       1.202690652453e-02       2.803103237275e+04 
       1.217838962729e-02       2.820664728170e+04 
       1.232991460283e-02       2.837909151295e+04 
       1.248148086082e-02       2.854840653461e+04 
       1.263308786124e-02       2.871459472372e+04 
       1.278473511201e-02       2.887770053183e+04 
       1.293642216681e-02       2.903768377382e+04 
       1.308814862301e-02       2.919470467503e+04 
       1.323991411979e-02       2.934859189750e+04 
       1.339171833645e-02       2.949945628087e+04 
       1.354356099069e-02       2.964725867448e+04 
       1.369544183720e-02       2.979215942720e+04 
       1.384736066623e-02       2.993402421064e+04 
       1.399931730230e-02       3.007294262534e+04 
       1.415131160299e-02       3.020883914696e+04 
       1.430334345788e-02       3.034192108703e+04 
       1.445541278750e-02       3.047212657398e+04 
       1.460751954240e-02       3.059938323958e+04 
       1.475966370225e-02       3.072368198739e+04 
       1.491184527506e-02       3.084529845487e+04 
       1.506406429644e-02       3.096388697817e+04 
       1.521632082892e-02       3.107986772096e+04 
       1.536861496129e-02       3.119285177408e+04 
       1.552094680810e-02       3.130315343217e+04 
       1.567331650905e-02       3.141069590828e+04 
       1.582572422858e-02       3.151544741133e+04 
       1.597817015541e-02       3.161750259440e+04 
       1.613065450216e-02       3.171691340832e+04 
       1.628317750499e-02       3.181358019046e+04 
       1.643573942329e-02       3.190742607300e+04 
       1.658834053942e-02       3.199882149881e+04 
       1.674098115843e-02       3.208736914090e+04 
       1.689366160788e-02       3.217339720300e+04 
       1.704638223765e-02       3.225681829148e+04 
       1.719914341980e-02       3.233762288474e+04 
       1.735194554842e-02       3.241585254298e+04 
       1.750478903957e-02       3.249157509067e+04 
       1.765767433117e-02       3.256470085194e+04 
       1.781060188301e-02       3.263538764764e+04 
       1.796357217667e-02       3.270353287485e+04 
       1.811658571557e-02       3.276926456831e+04 
       1.826964302498e-02       3.283171454035e+04 
       1.842274465205e-02       3.289318869665e+04 
       1.857589116592e-02       3.295144188145e+04 
       1.872908315776e-02       3.300725857674e+04 
       1.888232124094e-02       3.306075715646e+04 
       1.903560605111e-02       3.311192191568e+04 
       1.918893824636e-02       3.316064574434e+04 
       1.934231850741e-02       3.320717097902e+04 
       1.949574753778e-02       3.325117565371e+04 
       1.964922606401e-02       3.329302229395e+04 
       1.980275483586e-02       3.333239822522e+04 
       1.995633462658e-02       3.336981130942e+04 
       2.010996623316e-02       3.340469100420e+04 
       2.026365047659e-02       3.343742221643e+04 
       2.041738820220e-02       3.346814958762e+04 
       2.057118027991e-02       3.349643847503e+04 
       2.072502760464e-02       3.352263658269e+04 
       2.087893109659e-02       3.354673471098e+04 
       2.103289170164e-02       3.356858501126e+04 
       2.118691039173e-02       3.358842623891e+04 
       2.134098816524e-02       3.360602498198e+04 
       2.149512604745e-02       3.362165884826e+04 
       2.164932509096e-02       3.363528645246e+04 
       2.180358637612e-02       3.364670189271e+04 
       2.195791101155e-02       3.365616927270e+04 
       2.211230013458e-02       3.366368479026e+04 
       2.226675491181e-02       3.366928984457e+04 
       2.242127653962e-02       3.367272874620e+04 
       2.257586624471e-02       3.367430374617e+04 
       2.273052528469e-02       3.367412523365e+04 
       2.288525494866e-02       3.367182979903e+04 
       2.304005655780e-02       3.366777955004e+04 
       2.319493146604e-02       3.366165669937e+04 
       2.334988106068e-02       3.365270893863e+04 
       2.350490676307e-02       3.364428411177e+04 
       2.366001002931e-02       3.363267777914e+04 
       2.381519235098e-02       3.361837959737e+04 
       2.397045525584e-02       3.360451399189e+04 
       2.412580030865e-02       3.358663975697e+04 
       2.428122911189e-02       3.356904927191e+04 
       2.443674330664e-02       3.354899453471e+04 
       2.459234457339e-02       3.352692438377e+04 
       2.474803463289e-02       3.350252165435e+04 
       2.490381524706e-02       3.347810792866e+04 
       2.505968821989e-02       3.345115824824e+04 
       2.521565539842e-02       3.342277340848e+04 
       2.537171867369e-02       3.339257239032e+04 
       2.552787998174e-02       3.336091374095e+04 
       2.568414130467e-02       3.332777674925e+04 
       2.584050467168e-02       3.329298903581e+04 
       2.599697216020e-02       3.325558449412e+04 
       2.615354589700e-02       3.321785136605e+04 
       2.631022805937e-02       3.317956140945e+04 
       2.646702087633e-02       3.313782570194e+04 
       2.662392662985e-02       3.309643169066e+04 
       2.678094765614e-02       3.305207384715e+04 
       2.693808634701e-02       3.300703526466e+04 
       2.709534515113e-02       3.296145005285e+04 
       2.725272657555e-02       3.291352017723e+04 
       2.741023318706e-02       3.286432926478e+04 
       2.756786761369e-02       3.281255950823e+04 
       2.772563254629e-02       3.276207243562e+04 
       2.788353074008e-02       3.270822257405e+04 
       2.804156501627e-02       3.265454939707e+04 
       2.819973826379e-02       3.259758150335e+04 
       2.835805344097e-02       3.254204753324e+04 
       2.851651357739e-02       3.248294200878e+04 
       2.867512177568e-02       3.242375432809e+04 
       2.883388121349e-02       3.236390103064e+04 
       2.899279514537e-02       3.230233367266e+04 
       2.915186690490e-02       3.223869966320e+04 
       2.931109990673e-02       3.217438075311e+04 
       2.947049764877e-02       3.210924352724e+04 
       2.963006371442e-02       3.204330310201e+04 
       2.978980177489e-02       3.197661829208e+04 
       2.994971559160e-02       3.190752791092e+04 
       3.010980901863e-02       3.183796338348e+04 
       3.027008600529e-02       3.176742681668e+04 
       3.043055059873e-02       3.169598902460e+04 
       3.059120694672e-02       3.162442476306e+04 
       3.075205930042e-02       3.155088010025e+04 
       3.091311201733e-02       3.147631976024e+04 
       3.107436956429e-02       3.139995160138e+04 
       3.123583652064e-02       3.132363249378e+04 
       3.139751758138e-02       3.124648930194e+04 
       3.155941756061e-02       3.116906574074e+04 
       3.172154139493e-02       3.108897368938e+04 
       3.188389414705e-02       3.100912984734e+04 
       3.204648100953e-02       3.092834576036e+04 
       3.220930730859e-02       3.084646107179e+04 
       3.237237850815e-02       3.076480288488e+04 
       3.253570021395e-02       3.068069282806e+04 
       3.269927817781e-02       3.059646659580e+04 
       3.286311830218e-02       3.051154399381e+04 
       3.302722664465e-02       3.042577939089e+04 
       3.319160942281e-02       3.033956353488e+04 
       3.335627301924e-02       3.025202936384e+04 
       3.352122398662e-02       3.016411517834e+04 
       3.368646905316e-02       3.007626838170e+04 
       3.385201512814e-02       2.998627784588e+04 
       3.401786930772e-02       2.989673512567e+04 
       3.418403888099e-02       2.980597316695e+04 
       3.435053133619e-02       2.971390870000e+04 
       3.451735436727e-02       2.962181683380e+04 
       3.468451588066e-02       2.952890353913e+04 
       3.485202400232e-02       2.943567771266e+04 
       3.501988708513e-02       2.934160960194e+04 
       3.518811371648e-02       2.924703204281e+04 
       3.535671272633e-02       2.915181733811e+04 
       3.552569319547e-02       2.905659256732e+04 
       3.569506446418e-02       2.895945110964e+04 
       3.586483614134e-02       2.886260183695e+04 
       3.603501811378e-02       2.876506198582e+04 
       3.620562055620e-02       2.866695152847e+04 
       3.637665394140e-02       2.856860437714e+04 
       3.654812905103e-02       2.846937900268e+04 
       3.672005698683e-02       2.836980938081e+04 
       3.689244918236e-02       2.827021491521e+04 
       3.706531741521e-02       2.816904171425e+04 
       3.723867381992e-02       2.806796398359e+04 
       3.741253090132e-02       2.796689975551e+04 
       3.758690154868e-02       2.786490558830e+04 
       3.776179905035e-02       2.776184941862e+04 
       3.793723710926e-02       2.765882812928e+04 
       3.811322985906e-02       2.755557883708e+04 
       3.828979188113e-02       2.745150805045e+04 
       3.846693822233e-02       2.734742080113e+04 
       3.864468441376e-02       2.724257232381e+04 
       3.882304649035e-02       2.713730134986e+04 
       3.900204101152e-02       2.703259143943e+04 
       3.918168508286e-02       2.692610806829e+04 
       3.936199637893e-02       2.681975417494e+04 
       3.954299316733e-02       2.671320884020e+04 
       3.972469433393e-02       2.660608905613e+04 
       3.990711940953e-02       2.649852633986e+04 
       4.009028859795e-02       2.639090995051e+04 
       4.027422280564e-02       2.628242874854e+04 
       4.045894367291e-02       2.617411143911e+04 
       4.064447360696e-02       2.606536215103e+04 
       4.083083581674e-02       2.595595209964e+04 
       4.101805434976e-02       2.584631636737e+04 
       4.120615413114e-02       2.573619874176e+04 
       4.139516100481e-02       2.562657134919e+04 
       4.158510177728e-02       2.551527901079e+04 
       4.177600426386e-02       2.540408772477e+04 
       4.196789733787e-02       2.529276182233e+04 
       4.216081098271e-02       2.518126311746e+04 
       4.235477634722e-02       2.506889345706e+04 
       4.254982580453e-02       2.495669996446e+04 
       4.274599301460e-02       2.484394138648e+04 
       4.294331299082e-02       2.473114009577e+04 
       4.314182217091e-02       2.461763363338e+04 
       4.334155849254e-02       2.450366812450e+04 
       4.354256147397e-02       2.438949091637e+04 
       4.374487230013e-02       2.427497013993e+04 
       4.394853391469e-02       2.416011027205e+04 
       4.415359111836e-02       2.404573199281e+04 
       4.436009067432e-02       2.392976511890e+04 
       4.456808142100e-02       2.381390064756e+04 
       4.477761439312e-02       2.369740368432e+04 
       4.498874295160e-02       2.358109101198e+04 
       4.520152292310e-02       2.346378705298e+04 
       4.541601275018e-02       2.334640596503e+04 
       4.563227365284e-02       2.322887722782e+04 
       4.585036980280e-02       2.311122620968e+04 
       4.607036851132e-02       2.299205674458e+04 
       4.629234043231e-02       2.287301323402e+04 
       4.651635978175e-02       2.275343081081e+04 
       4.674250457541e-02       2.263354025492e+04 
       4.697085688645e-02       2.251324885578e+04 
       4.720150312502e-02       2.239259678220e+04 
       4.743453434212e-02       2.227211832376e+04 
       4.767004656025e-02       2.214934029701e+04 
       4.790814113370e-02       2.202715127539e+04 
       4.814892514172e-02       2.190430590338e+04 
       4.839251181816e-02       2.178109943405e+04 
       4.863902102165e-02       2.165696788392e+04 
       4.888857975110e-02       2.153281814687e+04 
       4.914132271149e-02       2.140744066760e+04 
       4.939739293623e-02       2.128199193125e+04 
       4.965694247267e-02       2.115527408556e+04 
       4.992013313862e-02       2.102809857917e+04 
       5.018713735873e-02       2.090079042508e+04 
       5.045813909091e-02       2.077175509450e+04 
       5.073333485453e-02       2.064247342678e+04 
       5.101293487391e-02       2.051321622128e+04 
       5.129716435265e-02       2.038263933668e+04 
       5.158626489694e-02       2.025013515196e+04 
       5.188049610890e-02       2.011687797690e+04 
       5.218013737437e-02       1.998321345344e+04 
       5.248548987394e-02       1.984845779422e+04 
       5.279687885073e-02       1.971254167594e+04 
       5.311465617451e-02       1.957573873655e+04 
       5.343920324892e-02       1.943719570088e+04 
       5.377093431709e-02       1.929764708336e+04 
       5.411030023139e-02       1.915684757829e+04 
       5.445779276593e-02       1.901449953573e+04 
       5.481394956583e-02       1.887081959069e+04 
       5.517935984625e-02       1.872550505974e+04 
       5.555467097792e-02       1.857825277843e+04 
       5.594059612453e-02       1.842942466677e+04 
       5.633792313360e-02       1.827836614860e+04 
       5.674752492732e-02       1.812513040939e+04 
       5.717037169568e-02       1.797043701699e+04 
       5.760754526544e-02       1.781269211619e+04 
       5.806025610687e-02       1.765259302476e+04 
       5.852986355339e-02       1.749039996889e+04 
       5.901789995241e-02       1.732405717003e+04 
       5.952609964782e-02       1.715529420889e+04 
       6.005643392705e-02       1.698307744321e+04 
       6.061115336189e-02       1.680728058100e+04 
       6.119283934868e-02       1.662734033609e+04 
       6.180446712956e-02       1.644242961386e+04 
       6.244948317144e-02       1.625318573088e+04 
       6.313190050811e-02       1.605898445213e+04 
       6.385641651277e-02       1.585823620358e+04 
       6.462855851960e-02       1.565135285638e+04 
       6.545486362047e-02       1.543818960294e+04 
       6.634309949762e-02       1.521574654353e+04 
       6.730253260119e-02       1.498444100665e+04 
       6.834424688115e-02       1.474307555953e+04 
       6.948150780621e-02       1.449042692631e+04 
       7.073014736668e-02       1.422481121715e+04 
       7.210890744025e-02       1.394313795071e+04 
       7.363960867809e-02       1.364434759015e+04 
       7.534689761270e-02       1.332541887811e+04 
       7.725717192660e-02       1.298243564267e+04 
       7.939616332729e-02       1.261213114695e+04 
       8.178477673108e-02       1.221059886007e+04 
       8.443348647366e-02       1.177448969598e+04 
